H2O_gs ID=1 IR-X	H2O_gs ID=1 IR-Y	H2O_es ID=1 IR-X	H2O_es ID=1 IR-Y
0	0.0015095901563446053	0	0.00836919985754599
5	0.001518415784888457	5	0.008416897903750165
10	0.0015273211650027618	10	0.008465057458578736
15	0.0015363072720595131	15	0.008513684899157286
20	0.0015453750964643832	20	0.008562786716587709
25	0.0015545256439362476	25	0.008612369518434557
30	0.0015637599357927999	30	0.008662440031275219
35	0.0015730790092424042	35	0.008713005103315876
40	0.0015824839176823437	40	0.008764071707075152
45	0.0015919757310036288	45	0.008815646942137484
50	0.0016015555359025243	50	0.008867738037978284
55	0.0016112244361989713	55	0.00892035235686307
60	0.0016209835531620753	60	0.008973497396822768
65	0.0016308340258428431	65	0.009027180794707487
70	0.0016407770114143484	70	0.009081410329321167
75	0.0016508136855195232	75	0.009136193924639536
80	0.0016609452426267688	80	0.009191539653113943
85	0.001671172896393582	85	0.009247455739063692
90	0.0016814978800384144	90	0.009303950562159593
95	0.0016919214467209674	95	0.009361032661001571
100	0.0017024448699311542	100	0.009418710736793241
105	0.0017130694438869441	105	0.00947699365711646
110	0.0017237964839413283	110	0.009535890459809002
115	0.0017346273269986463	115	0.00959541035694858
120	0.0017455633319405175	120	0.009655562738946587
125	0.0017566058800616356	125	0.009716357178754995
130	0.0017677563755156838	130	0.00977780343619004
135	0.0017790162457716442	135	0.00983991146237642
140	0.0017903869420807773	140	0.009902691404315822
145	0.0018018699399545552	145	0.009966153609583854
150	0.0018134667396538526	150	0.010030308631159444
155	0.0018251788666896853	155	0.010095167232391067
160	0.0018370078723358237	160	0.01016074039210423
165	0.0018489553341535917	165	0.010227039309854823
170	0.0018610228565291934	170	0.010294075411333134
175	0.001873212071223905	175	0.010361860353923523
180	0.0018855246379374845	180	0.010430406032424854
185	0.0018979622448851681	185	0.010499724584937059
190	0.0019105266093886256	190	0.010569828398919397
195	0.00192321947848126	195	0.010640730117426118
200	0.0019360426295282624	200	0.010712442645525545
205	0.001948997870861815	205	0.010784979156908752
210	0.001962087042431885	210	0.010858353100694287
215	0.001975312016473041	215	0.010932578208435614
220	0.0019886746981877417	220	0.011007668501338216
225	0.0020021770264465693	225	0.011083638297693587
230	0.0020158209745058855	230	0.011160502220537565
235	0.0020296085507434097	235	0.011238275205540852
240	0.002043541799412233	240	0.011316972509139735
245	0.002057622801413796	245	0.011396609716915461
250	0.0020718536750903775	250	0.011477202752231014
255	0.0020862365770376663	255	0.011558767885134337
260	0.0021007737029379845	260	0.011641321741537486
265	0.002115467288414783	265	0.011724881312681533
270	0.00213031960990902	270	0.011809463964897439
275	0.002145332985578065	275	0.011895087449673524
280	0.002160509776217805	280	0.011981769914040642
285	0.0021758523862086205	285	0.012069529911286524
290	0.002191363264485963	290	0.012158386412011347
295	0.0022070449055362437	295	0.012248358815536962
300	0.0022228998504188148	300	0.012339466961682814
305	0.002238930687814806	305	0.012431731142922113
310	0.0022551400551036453	310	0.012525172116932317
315	0.0022715306394680847	315	0.012619811119554694
320	0.002288105179028614	320	0.012715669878178227
325	0.0023048664640081414	325	0.01281277062556389
330	0.0023218173379278874	330	0.012911136114125886
335	0.002338960698835433	335	0.013010789630687275
340	0.0023562995005659256	340	0.013111755011728052
345	0.00237383675403747	345	0.013214056659144584
350	0.0023915755285817595	350	0.013317719556540136
355	0.0024095189533110584	355	0.013422769286067022
360	0.0024276702185226616	360	0.013529232045841876
365	0.0024460325771420268	365	0.013637134667956453
370	0.002464609346205787	370	0.01374650463710738
375	0.0024834039083859185	375	0.01385737010986926
380	0.002502419713556363	380	0.013969759934636752
385	0.0025216602804034767	385	0.014083703672262221
390	0.0025411291980816995	390	0.014199231617416933
395	0.0025608301279159093	395	0.014316374820704874
400	0.0025807668051519676	400	0.014435165111559754
405	0.0026009430407570294	405	0.014555635121957023
410	0.002621362723271226	410	0.014677818310974257
415	0.0026420298207124253	415	0.014801748990234837
420	0.002662948382535796	420	0.014927462350271405
425	0.0026841225416499906	425	0.015054994487847325
430	0.002705556516491838	430	0.015184382434276195
435	0.0027272546131614697	435	0.015315664184781284
440	0.002749221227619925	440	0.015448878728938834
445	0.00277146084795132	445	0.015584066082251187
450	0.0027939780566917567	450	0.01572126731889798
455	0.00281677753322724	455	0.015860524605715916
460	0.0028398640562629428	460	0.016001881237460124
465	0.0028632425063662634	465	0.01614538167340265
470	0.002886917868586198	470	0.016291071575326374
475	0.0029108952351516596	475	0.016438997846975594
480	0.0029351798082514835	480	0.01658920867502738
485	0.002959776902898943	485	0.016741753571651176
490	0.002984691949883736	490	0.016896683418727458
495	0.003009930498814508	495	0.017054050513799702
500	0.0030354982212550887	500	0.017213908617837947
505	0.003061400913957773	505	0.01737631300489593
510	0.003087644502197073	510	0.0175413205137482
515	0.0031142350432075503	515	0.017708989601597967
520	0.003141178729729433	520	0.017879380399951197
525	0.003168481893665916	525	0.01805255477275738
530	0.003196151009856177	530	0.01822857637692279
535	0.00322419269996831	535	0.0184075107253075
540	0.0032526137365165575	540	0.01858942525232345
545	0.0032814210470073885	545	0.01877438938225707
550	0.003310621718219184	550	0.01896247460044654
555	0.003340223000620455	555	0.019153754527450995
560	0.0033702323129317516	560	0.01934830499635617
565	0.003400657246836635	565	0.019546204133369202
570	0.003431505571847292	570	0.01974753244186341
575	0.0034627852403306286	575	0.019952372890043032
580	0.003494504392700925	580	0.0201608110024072
585	0.0035266713627853793	585	0.020372934955202624
590	0.0035592946833691605	590	0.020588835676065027
595	0.0035923830919268674	595	0.020808606948060793
600	0.00362594553654758	600	0.021032345518352424
605	0.0036599911820610247	605	0.02126015121172418
610	0.0036945294163726844	610	0.021492127049217997
615	0.00372956985701605	615	0.021728379372144346
620	0.003765122357930545	620	0.02196901797174825
625	0.003801197016474067	625	0.022214156224827128
630	0.003837804180679461	630	0.02246391123561491
635	0.0038749544567646815	635	0.02271840398426549
640	0.0039126587169068215	640	0.022977759482288848
645	0.003950928107290666	645	0.023242106935314352
650	0.003989774056442898	650	0.023511579913578884
655	0.004029208283863606	655	0.023786316530561624
660	0.0040692428089672845	660	0.02406645963021353
665	0.0041098899603460555	665	0.024352156983257513
670	0.0041511623853684775	670	0.024643561493065114
675	0.004193073060127882	675	0.024940831411647345
680	0.004235635299754885	680	0.025244130566331794
685	0.004278862769109375	685	0.02555362859773456
690	0.004322769493868016	690	0.025869501209674878
695	0.004367369872024097	695	0.026191930431722507
700	0.004412678685817326	700	0.026521104895113036
705	0.004458711114112053	705	0.02685722012281477
710	0.004505482745243274	710	0.027200478834582993
715	0.004553009590350758	715	0.02755109126789315
720	0.004601308097222569	720	0.027909275515704896
725	0.004650395164670398	725	0.02827525788207344
730	0.004700288157460119	730	0.02864927325669415
735	0.00475100492182228	735	0.029031565509541522
740	0.004802563801568369	740	0.029422387906844084
745	0.004854983654840057	745	0.029822003549723995
750	0.00490828387152002	750	0.030230685836923732
755	0.004962484391334311	755	0.030648718953143653
760	0.00501760572267794	760	0.031076398384623328
765	0.005073668962196782	765	0.031514031463717854
770	0.005130695815160816	770	0.03196193794434776
775	0.005188708616665404	775	0.03242045061033934
780	0.005247730353699314	780	0.03288991591882157
785	0.005307784688120244	785	0.03337069468100775
790	0.005368895980580696	790	0.03386316278286508
795	0.005431089315449449	795	0.034367711948365964
800	0.005494390526776225	800	0.03488475054822088
805	0.005558826225349766	805	0.03541470445721677
810	0.0056244238269022705	810	0.03595801796352863
815	0.005691211581516007	815	0.036515154733636375
820	0.005759218604291062	820	0.03708659883676744
825	0.005828474907336378	825	0.03767285583309906
830	0.005899011433149771	830	0.038274453930296125
835	0.005970860089456259	835	0.038891945213333216
840	0.006044053785577973	840	0.039525906952956213
845	0.0061186264704130985	845	0.0401769429985834
850	0.006194613172105717	850	0.04084568526193104
855	0.006272050039493099	855	0.041532795298180665
860	0.006350974385422124	860	0.04223896599208574
865	0.006431424732031694	865	0.04296492335705371
870	0.006513440858103858	870	0.043711428455937396
875	0.006597063848592314	875	0.04447927945303757
880	0.006682336146443505	880	0.04526931380766047
885	0.006769301606832361	885	0.04608241062050081
890	0.006858005553942165	890	0.046919493145140406
895	0.0069484948404258135	895	0.04778153147807555
900	0.007040817909694212	900	0.04866954544192456
905	0.007135024861186426	905	0.04958460767783365
910	0.007231167518785874	910	0.0505278469646087
915	0.007329299502557033	915	0.05150045178377026
920	0.007429476303988137	920	0.05250367415157709
925	0.007531755364937054	925	0.05353883374111106
930	0.00763619616049012	930	0.05460732231978816
935	0.00774286028595712	935	0.055710608530182684
940	0.007851811548240125	940	0.05685024304485636
945	0.007963116061829246	945	0.05802786412900504
950	0.008076842349695086	950	0.05924520364821396
955	0.008193061449365385	955	0.06050409356249214
960	0.008311847024492587	960	0.061806472952090706
965	0.008433275482239508	965	0.06315439562545586
970	0.008557426096832497	970	0.06455003836509457
975	0.00868438113965519	975	0.06599570987321526
980	0.008814226016281547	980	0.06749386048583687
985	0.008947049410874435	985	0.06904709273173903
990	0.009082943438405712	990	0.07065817282127088
995	0.00922200380518572	995	0.07233004315978257
1000	0.009364329978224634	1000	0.07406583599144623
1005	0.009510025363985378	1005	0.0758688882916747
1010	0.009659197497127986	1010	0.07774275804043461
1015	0.009811958239888785	1015	0.07969124202472921
1020	0.009968423992784766	1020	0.08171839533667834
1025	0.01012871591738425	1025	0.08382855275427763
1030	0.010292960171940093	1030	0.08602635221546101
1035	0.010461288160741163	1035	0.08831676062297081
1040	0.010633836798102451	1040	0.09070510224828475
1045	0.010810748787984253	1045	0.0931970900380809
1050	0.010992172920306794	1050	0.09579886016716951
1055	0.01117826438510932	1055	0.09851701022834702
1060	0.01136918510579236	1060	0.10135864150325252
1065	0.011565104092779459	1065	0.10433140582024047
1070	0.011766197819040812	1070	0.10744355757696204
1075	0.011972650619036986	1075	0.11070401158848638
1080	0.012184655112766863	1080	0.1141224075184383
1085	0.012402412656741465	1085	0.1177091817632351
1090	0.012626133823855367	1090	0.12147564779101647
1095	0.012856038914291318	1095	0.12543408609083376
1100	0.013092358499772907	1100	0.129597845068382
1105	0.013335334003676112	1105	0.13398145443722695
1110	0.013585218319725385	1110	0.13860075290541773
1115	0.013842276472235019	1115	0.1434730322542993
1120	0.014106786321114811	1120	0.14861720025868552
1125	0.01437903931514215	1125	0.15405396531691365
1130	0.014659341297313984	1130	0.15980604615996605
1135	0.014948013366434526	1135	0.16589841060848518
1140	0.015245392799471198	1140	0.17235854806707504
1145	0.01555183403962648	1145	0.17921678131414306
1150	0.015867709755531263	1150	0.18650662419694852
1155	0.016193411977470464	1155	0.19426519311857154
1160	0.0165293533171102	1160	0.20253368176059947
1165	0.016875968277813427	1165	0.21135791039147714
1170	0.017233714663314696	1170	0.22078896345369778
1175	0.017603075093282742	1175	0.23088393201608318
1180	0.017984558635140514	1180	0.24170678126557993
1185	0.01837870256244644	1185	0.25332936768439945
1190	0.018786074251179362	1190	0.2658326361579829
1195	0.019207273226426146	1195	0.27930803430823536
1200	0.01964293337325968	1200	0.2938591902680407
1205	0.020093725327033466	1205	0.30960391146898825
1210	0.020560359059925554	1210	0.3266765765550997
1215	0.021043586682362513	1215	0.3452310112712603
1220	0.021544205479967188	1220	0.36544396347572583
1225	0.022063061208932082	1225	0.3875193241634773
1230	0.022601051675256015	1230	0.411693283141308
1235	0.0231591306261331	1235	0.43824066335346396
1240	0.02373831198499457	1240	0.4674827518524687
1245	0.02433967446532482	1245	0.4997970451778297
1250	0.02496436660246322	1250	0.5356294626627457
1255	0.025613612247228672	1255	0.5755097677301602
1260	0.026288716570444123	1260	0.6200711962407314
1265	0.02699107263338338	1265	0.6700756545759394
1270	0.0277221685859188	1270	0.7264463667352042
1275	0.028483595561839183	1275	0.7903105930532817
1280	0.02927705634957602	1280	0.8630561274450194
1285	0.030104374926592795	1285	0.9464068852520241
1290	0.030967506957153064	1290	1.0425253081566965
1295	0.03186855136632226	1295	1.1541530074319546
1300	0.032809763118148816	1300	1.2848068281682916
1305	0.03379356734333639	1305	1.4390566868021308
1310	0.03482257498174409	1310	1.6229264595419275
1315	0.03589960012818899	1315	1.844484099275531
1320	0.03702767929681743	1320	2.114729846020675
1325	0.038210092850401424	1325	2.44896682127979
1330	0.03945038887707584	1330	2.8689761281733204
1335	0.040752409839184926	1335	3.406580122538638
1340	0.04212032236816322	1340	4.109695297505738
1345	0.04355865063707584	1345	5.053051494454685
1350	0.045072313810206044	1350	6.358111250019817
1355	0.04666666814886678	1355	8.232214427265802
1360	0.04834755444681847	1360	11.050657283495607
1365	0.050121351580213976	1365	15.54198940635306
1370	0.051995037089436244	1370	23.240304012197676
1375	0.053976255867935266	1375	37.6532265849332
1380	0.0560733982216266	1380	66.96021723440822
1385	0.05829568878828736	1385	122.55097399787913
1390	0.06065328807801575	1390	160.34011892024938
1395	0.06315740872360646	1395	109.10670275025588
1400	0.0658204489266724	1400	59.01484824486437
1405	0.06865614606791876	1405	33.81425630533964
1410	0.07167975403888795	1410	21.255218709235763
1415	0.0749082485740864	1415	14.417118669498228
1420	0.07836056575029902	1420	10.36147428016949
1425	0.0820578799172253	1425	7.782836143492571
1430	0.0860239286859546	1430	6.05024658824981
1435	0.09028539430136281	1435	4.833606127246814
1440	0.09487235285532468	1440	3.948153245283836
1445	0.09981880548311628	1445	3.2844678177192836
1450	0.10516330908848356	1450	2.7746110622845888
1455	0.11094972848015333	1455	2.374682274151143
1460	0.11722813736389257	1460	2.0553322869456374
1465	0.1240559028102736	1465	1.7963575392965903
1470	0.13149899713974914	1470	1.5834923426595495
1475	0.13963359336008926	1475	1.40643720158971
1480	0.14854801636000547	1480	1.257608803575049
1485	0.15834514340469888	1485	1.1313255657685701
1490	0.16914537605995086	1490	1.023263909758768
1495	0.18109034428358406	1495	0.9300872906856317
1500	0.19434755607513857	1500	0.8491880918581669
1505	0.20911627858560702	1505	0.7785048421018849
1510	0.22563503750817027	1510	0.716390678801838
1515	0.24419126361859841	1515	0.6615172925706498
1520	0.2651338176964085	1520	0.6128038355712148
1525	0.2888894170966853	1525	0.5693636534407929
1530	0.3159844145981125	1530	0.5304639162543873
1535	0.3470740149699115	1535	0.4954947019216067
1540	0.38298197310159027	1540	0.4639450869275037
1545	0.42475529012626184	1545	0.43538448790981743
1550	0.47374073030259484	1550	0.4094479774136169
1555	0.5316936697980332	1555	0.38582463577428533
1560	0.6009358237197817	1560	0.36424824283638274
1565	0.6845885249884283	1565	0.34448978772226907
1570	0.7869257023849244	1570	0.3263514021268429
1575	0.9139218014047438	1575	0.3096614163223315
1580	1.0741271727204753	1580	0.29427030668558174
1585	1.2801131273397612	1585	0.2800473557412166
1590	1.5509481879269849	1590	0.26687788513625565
1595	1.9166277900766855	1595	0.254660951973144
1600	2.4264027692593153	1600	0.24330742194091537
1605	3.165370105952311	1605	0.2327383504518833
1610	4.28980978268133	1610	0.22288361679890473
1615	6.108354467897015	1615	0.2136807671451466
1620	9.28335729484043	1620	0.20507403065083535
1625	15.35144783083741	1625	0.19701347975913674
1630	27.798040535847115	1630	0.18945431100561613
1635	49.45490138018451	1635	0.1823562269860836
1640	55.92548282440359	1640	0.17568290354789362
1645	34.53598675224599	1645	0.1694015290381632
1650	18.711448084824397	1650	0.16348240468667521
1655	10.947632675892484	1655	0.15789859702851283
1660	7.009852333835366	1660	0.15262563476538846
1665	4.822091700084011	1665	0.14764124369086296
1670	3.502509877282369	1670	0.14292511431501778
1675	2.652196906219349	1675	0.13845869765970734
1680	2.0747528745934267	1680	0.13422502538897532
1685	1.6657676466603222	1685	0.1302085510167015
1690	1.3660115341006733	1690	0.12639500941602952
1695	1.1400115483456306	1695	0.12277129225952509
1700	0.9655337002768744	1700	0.11932533735899961
1705	0.8280952269572852	1705	0.11604603016061461
1710	0.7179471437201896	1710	0.11292311589330695
1715	0.6283383689538045	1715	0.10994712107414319
1720	0.5544771814043944	1720	0.1071092832489912
1725	0.4928882432635044	1725	0.10440148799588894
1730	0.4410023640059648	1730	0.10181621234581399
1735	0.3968876959154334	1735	0.09934647388463098
1740	0.3590693755753339	1740	0.09698578489365409
1745	0.3264059120670472	1745	0.09472811096686823
1750	0.2980028318071025	1750	0.09256783361238222
1755	0.27315129784071523	1755	0.09049971640578748
1760	0.2512837891306071	1760	0.08851887431515816
1765	0.23194163543711538	1765	0.08662074586261652
1770	0.21475092154949332	1770	0.08480106782668856
1775	0.1994043856278525	1775	0.0830558522239204
1780	0.1856476679303389	1780	0.08138136533812262
1785	0.17326875594724245	1785	0.07977410859175763
1790	0.16208980493629677	1790	0.07823080107689381
1795	0.15196074249046362	1795	0.07674836358325701
1800	0.14275422625394046	1800	0.07532390397858595
1805	0.13436163745205532	1805	0.07395470381206339
1810	0.12668987417403507	1810	0.07263820602532352
1815	0.11965876714999955	1815	0.07137200366766241
1820	0.11319898374046584	1820	0.07015382952280817
1825	0.10725031756725	1825	0.06898154656411203
1830	0.10176028482267714	1830	0.06785313916345732
1835	0.09668296601873685	1835	0.06676670498667694
1840	0.09197804535189305	1840	0.06572044751493851
1845	0.08761001008786223	1845	0.06471266913749824
1850	0.08354748022618666	1850	0.0637417647665245
1855	0.07976264477844652	1855	0.06280621592942782
1860	0.07623078572082892	1860	0.06190458529836865
1865	0.07292987438288119	1865	0.06103551162040729
1870	0.06984022794917369	1870	0.060197705015160995
1875	0.06694421605909867	1875	0.05938994260988559
1880	0.064226009328021	1880	0.05861106448464234
1885	0.061671363083814594	1885	0.05785996990267955
1890	0.05926743079553882	1890	0.05713561380338074
1895	0.05700260262649418	1895	0.05643700353713643
1900	0.05486636531924707	1900	0.055763195823306064
1905	0.052849180252083766	1905	0.055113293914071104
1910	0.05094237702341052	1910	0.05448644494845964
1915	0.04913806034539053	1915	0.053881837482161764
1920	0.04742902837839589	1920	0.053298699179968205
1925	0.04580870092776796	1925	0.05273629465876583
1930	0.04427105616517262	1930	0.05219392347002309
1935	0.04281057473750746	1935	0.05167091821160713
1940	0.041422190294098195	1940	0.0511666427596004
1945	0.040101245603643726	1945	0.05068049061153755
1950	0.03884345355075685	1950	0.05021188333316859
1955	0.03764486240183702	1955	0.04976026910148015
1960	0.0365018248145338	1960	0.04932512133727744
1965	0.03541097013677416	1965	0.04890593742115106
1970	0.034369179602336986	1970	0.048502237487129715
1975	0.03337356408199444	1975	0.04811356328875651
1980	0.032421444093734264	1980	0.04773947713272588
1985	0.031510331813712746	1985	0.047379560875584856
1990	0.030637914862352015	1990	0.047033414979337884
1995	0.029802041668207206	1995	0.046700657622103355
2000	0.029000708236575114	2000	0.046380923860252804
