# Photoabsorption spectrum from real-time propagation
# GPAW version: 19.8.1
# Total time = 14.9900 fs, Time steps = [10.0000] as
# Kick = [0.001, 0, 0]
# Gaussian folding, Width = 0.1500 eV = 0.005512 Hartree <=> FWHM = 0.353223 eV
#    om (eV)                  S_x                  S_y                  S_z
    0.000000     0.0000000000e+00     0.0000000000e+00     0.0000000000e+00
    0.050000     5.1916023643e-04     0.0000000000e+00     0.0000000000e+00
    0.100000     1.9664295959e-03     0.0000000000e+00     0.0000000000e+00
    0.150000     4.2081244339e-03     0.0000000000e+00     0.0000000000e+00
    0.200000     7.3368616536e-03     0.0000000000e+00     0.0000000000e+00
    0.250000     1.1475940093e-02     0.0000000000e+00     0.0000000000e+00
    0.300000     1.6299645598e-02     0.0000000000e+00     0.0000000000e+00
    0.350000     2.0978325442e-02     0.0000000000e+00     0.0000000000e+00
    0.400000     2.4816710901e-02     0.0000000000e+00     0.0000000000e+00
    0.450000     2.7901406107e-02     0.0000000000e+00     0.0000000000e+00
    0.500000     3.0917541003e-02     0.0000000000e+00     0.0000000000e+00
    0.550000     3.4302378294e-02     0.0000000000e+00     0.0000000000e+00
    0.600000     3.7838527710e-02     0.0000000000e+00    -0.0000000000e+00
    0.650000     4.1325868903e-02     0.0000000000e+00    -0.0000000000e+00
    0.700000     4.5546803027e-02     0.0000000000e+00    -0.0000000000e+00
    0.750000     5.2210653882e-02     0.0000000000e+00    -0.0000000000e+00
    0.800000     6.2831327778e-02     0.0000000000e+00    -0.0000000000e+00
    0.850000     7.8077676260e-02     0.0000000000e+00     0.0000000000e+00
    0.900000     9.8811533172e-02     0.0000000000e+00     0.0000000000e+00
    0.950000     1.2777836333e-01    -0.0000000000e+00     0.0000000000e+00
    1.000000     1.6941419890e-01    -0.0000000000e+00     0.0000000000e+00
    1.050000     2.2676887348e-01    -0.0000000000e+00     0.0000000000e+00
    1.100000     2.9788733723e-01    -0.0000000000e+00     0.0000000000e+00
    1.150000     3.7532159827e-01    -0.0000000000e+00     0.0000000000e+00
    1.200000     4.4980792958e-01    -0.0000000000e+00     0.0000000000e+00
    1.250000     5.1517063163e-01     0.0000000000e+00     0.0000000000e+00
    1.300000     5.7069582601e-01     0.0000000000e+00     0.0000000000e+00
    1.350000     6.2050004386e-01     0.0000000000e+00     0.0000000000e+00
    1.400000     6.7275916720e-01     0.0000000000e+00    -0.0000000000e+00
    1.450000     7.4094740446e-01     0.0000000000e+00    -0.0000000000e+00
    1.500000     8.4583446722e-01     0.0000000000e+00    -0.0000000000e+00
    1.550000     1.0164364761e+00     0.0000000000e+00    -0.0000000000e+00
    1.600000     1.2923105176e+00     0.0000000000e+00     0.0000000000e+00
    1.650000     1.7320998408e+00     0.0000000000e+00     0.0000000000e+00
    1.700000     2.4257581140e+00     0.0000000000e+00     0.0000000000e+00
    1.750000     3.4927963551e+00     0.0000000000e+00     0.0000000000e+00
    1.800000     5.0428409216e+00     0.0000000000e+00     0.0000000000e+00
    1.850000     7.0943080764e+00     0.0000000000e+00     0.0000000000e+00
    1.900000     9.4872276291e+00     0.0000000000e+00     0.0000000000e+00
    1.950000     1.1855947583e+01     0.0000000000e+00     0.0000000000e+00
    2.000000     1.3712026414e+01     0.0000000000e+00     0.0000000000e+00
    2.050000     1.4623580014e+01     0.0000000000e+00     0.0000000000e+00
    2.100000     1.4405001762e+01     0.0000000000e+00     0.0000000000e+00
    2.150000     1.3207436030e+01     0.0000000000e+00     0.0000000000e+00
    2.200000     1.1451789312e+01     0.0000000000e+00     0.0000000000e+00
    2.250000     9.6410337710e+00     0.0000000000e+00     0.0000000000e+00
    2.300000     8.1596546247e+00     0.0000000000e+00     0.0000000000e+00
    2.350000     7.1653444108e+00     0.0000000000e+00     0.0000000000e+00
    2.400000     6.6085981802e+00     0.0000000000e+00     0.0000000000e+00
    2.450000     6.3354554192e+00     0.0000000000e+00     0.0000000000e+00
    2.500000     6.1938947249e+00     0.0000000000e+00     0.0000000000e+00
    2.550000     6.0889910036e+00     0.0000000000e+00     0.0000000000e+00
    2.600000     5.9832623691e+00     0.0000000000e+00     0.0000000000e+00
    2.650000     5.8725446487e+00     0.0000000000e+00     0.0000000000e+00
    2.700000     5.7661701470e+00     0.0000000000e+00     0.0000000000e+00
    2.750000     5.6787730617e+00     0.0000000000e+00     0.0000000000e+00
    2.800000     5.6259651701e+00     0.0000000000e+00     0.0000000000e+00
    2.850000     5.6180367066e+00    -0.0000000000e+00    -0.0000000000e+00
    2.900000     5.6549200457e+00    -0.0000000000e+00    -0.0000000000e+00
    2.950000     5.7278571529e+00    -0.0000000000e+00    -0.0000000000e+00
    3.000000     5.8265104380e+00    -0.0000000000e+00     0.0000000000e+00
    3.050000     5.9442259298e+00    -0.0000000000e+00     0.0000000000e+00
    3.100000     6.0766621728e+00    -0.0000000000e+00     0.0000000000e+00
    3.150000     6.2169080893e+00    -0.0000000000e+00     0.0000000000e+00
    3.200000     6.3540432061e+00    -0.0000000000e+00     0.0000000000e+00
    3.250000     6.4776219477e+00     0.0000000000e+00     0.0000000000e+00
    3.300000     6.5834102348e+00     0.0000000000e+00     0.0000000000e+00
    3.350000     6.6742266959e+00     0.0000000000e+00     0.0000000000e+00
    3.400000     6.7552979319e+00     0.0000000000e+00     0.0000000000e+00
    3.450000     6.8294063452e+00     0.0000000000e+00     0.0000000000e+00
    3.500000     6.8966845881e+00     0.0000000000e+00     0.0000000000e+00
    3.550000     6.9581866310e+00     0.0000000000e+00     0.0000000000e+00
    3.600000     7.0182506025e+00     0.0000000000e+00     0.0000000000e+00
    3.650000     7.0826878560e+00     0.0000000000e+00     0.0000000000e+00
    3.700000     7.1551309717e+00     0.0000000000e+00     0.0000000000e+00
    3.750000     7.2360171785e+00     0.0000000000e+00    -0.0000000000e+00
    3.800000     7.3253381499e+00     0.0000000000e+00    -0.0000000000e+00
    3.850000     7.4256911528e+00    -0.0000000000e+00     0.0000000000e+00
    3.900000     7.5418364390e+00    -0.0000000000e+00     0.0000000000e+00
    3.950000     7.6771705314e+00    -0.0000000000e+00     0.0000000000e+00
    4.000000     7.8311762838e+00    -0.0000000000e+00     0.0000000000e+00
    4.050000     8.0007203489e+00    -0.0000000000e+00     0.0000000000e+00
    4.100000     8.1835516576e+00    -0.0000000000e+00     0.0000000000e+00
    4.150000     8.3798820860e+00    -0.0000000000e+00     0.0000000000e+00
    4.200000     8.5903379857e+00    -0.0000000000e+00     0.0000000000e+00
    4.250000     8.8129121554e+00    -0.0000000000e+00    -0.0000000000e+00
    4.300000     9.0426848090e+00     0.0000000000e+00    -0.0000000000e+00
    4.350000     9.2747488369e+00     0.0000000000e+00    -0.0000000000e+00
    4.400000     9.5069601217e+00     0.0000000000e+00    -0.0000000000e+00
    4.450000     9.7393200214e+00     0.0000000000e+00     0.0000000000e+00
    4.500000     9.9707218430e+00     0.0000000000e+00     0.0000000000e+00
    4.550000     1.0196846001e+01     0.0000000000e+00     0.0000000000e+00
    4.600000     1.0411649310e+01     0.0000000000e+00     0.0000000000e+00
    4.650000     1.0610784721e+01     0.0000000000e+00     0.0000000000e+00
    4.700000     1.0793180016e+01     0.0000000000e+00     0.0000000000e+00
    4.750000     1.0959238821e+01     0.0000000000e+00     0.0000000000e+00
    4.800000     1.1107997326e+01     0.0000000000e+00     0.0000000000e+00
    4.850000     1.1236601495e+01     0.0000000000e+00     0.0000000000e+00
    4.900000     1.1342632026e+01     0.0000000000e+00     0.0000000000e+00
    4.950000     1.1426557687e+01     0.0000000000e+00     0.0000000000e+00
    5.000000     1.1491696408e+01     0.0000000000e+00     0.0000000000e+00
    5.050000     1.1542171944e+01     0.0000000000e+00     0.0000000000e+00
    5.100000     1.1581604686e+01    -0.0000000000e+00     0.0000000000e+00
    5.150000     1.1613981167e+01    -0.0000000000e+00     0.0000000000e+00
    5.200000     1.1645005730e+01    -0.0000000000e+00    -0.0000000000e+00
    5.250000     1.1681240817e+01    -0.0000000000e+00    -0.0000000000e+00
    5.300000     1.1726915825e+01     0.0000000000e+00    -0.0000000000e+00
    5.350000     1.1781469211e+01     0.0000000000e+00    -0.0000000000e+00
    5.400000     1.1840766260e+01     0.0000000000e+00     0.0000000000e+00
    5.450000     1.1901302080e+01     0.0000000000e+00     0.0000000000e+00
    5.500000     1.1963477978e+01     0.0000000000e+00     0.0000000000e+00
    5.550000     1.2030864656e+01     0.0000000000e+00     0.0000000000e+00
    5.600000     1.2106418661e+01    -0.0000000000e+00     0.0000000000e+00
    5.650000     1.2189514363e+01    -0.0000000000e+00     0.0000000000e+00
    5.700000     1.2276368285e+01    -0.0000000000e+00     0.0000000000e+00
    5.750000     1.2362624642e+01    -0.0000000000e+00     0.0000000000e+00
    5.800000     1.2444860442e+01    -0.0000000000e+00     0.0000000000e+00
    5.850000     1.2519593908e+01    -0.0000000000e+00     0.0000000000e+00
    5.900000     1.2581630145e+01     0.0000000000e+00     0.0000000000e+00
    5.950000     1.2624372104e+01     0.0000000000e+00     0.0000000000e+00
    6.000000     1.2642248497e+01     0.0000000000e+00    -0.0000000000e+00
    6.050000     1.2632734909e+01     0.0000000000e+00    -0.0000000000e+00
    6.100000     1.2595800151e+01     0.0000000000e+00    -0.0000000000e+00
    6.150000     1.2531572962e+01     0.0000000000e+00     0.0000000000e+00
    6.200000     1.2439071922e+01     0.0000000000e+00     0.0000000000e+00
    6.250000     1.2317545468e+01     0.0000000000e+00     0.0000000000e+00
    6.300000     1.2168851833e+01    -0.0000000000e+00     0.0000000000e+00
    6.350000     1.1998032857e+01    -0.0000000000e+00     0.0000000000e+00
    6.400000     1.1811291651e+01    -0.0000000000e+00     0.0000000000e+00
    6.450000     1.1613556862e+01    -0.0000000000e+00    -0.0000000000e+00
    6.500000     1.1408234144e+01     0.0000000000e+00    -0.0000000000e+00
    6.550000     1.1199145027e+01     0.0000000000e+00     0.0000000000e+00
    6.600000     1.0992097136e+01     0.0000000000e+00     0.0000000000e+00
    6.650000     1.0794001541e+01     0.0000000000e+00     0.0000000000e+00
    6.700000     1.0610374033e+01     0.0000000000e+00     0.0000000000e+00
    6.750000     1.0443990753e+01     0.0000000000e+00     0.0000000000e+00
    6.800000     1.0296156578e+01     0.0000000000e+00     0.0000000000e+00
    6.850000     1.0169036745e+01     0.0000000000e+00    -0.0000000000e+00
    6.900000     1.0066318759e+01     0.0000000000e+00    -0.0000000000e+00
    6.950000     9.9914794490e+00     0.0000000000e+00    -0.0000000000e+00
    7.000000     9.9457631499e+00     0.0000000000e+00     0.0000000000e+00
    7.050000     9.9283194011e+00    -0.0000000000e+00     0.0000000000e+00
    7.100000     9.9384194833e+00    -0.0000000000e+00     0.0000000000e+00
    7.150000     9.9772441415e+00    -0.0000000000e+00     0.0000000000e+00
    7.200000     1.0047245853e+01    -0.0000000000e+00     0.0000000000e+00
    7.250000     1.0149925055e+01    -0.0000000000e+00     0.0000000000e+00
    7.300000     1.0284695608e+01     0.0000000000e+00     0.0000000000e+00
    7.350000     1.0450212199e+01    -0.0000000000e+00     0.0000000000e+00
    7.400000     1.0646631239e+01    -0.0000000000e+00     0.0000000000e+00
    7.450000     1.0876177448e+01    -0.0000000000e+00     0.0000000000e+00
    7.500000     1.1141370416e+01    -0.0000000000e+00     0.0000000000e+00
    7.550000     1.1443002124e+01    -0.0000000000e+00     0.0000000000e+00
    7.600000     1.1780246594e+01     0.0000000000e+00     0.0000000000e+00
    7.650000     1.2152791685e+01     0.0000000000e+00     0.0000000000e+00
    7.700000     1.2562522814e+01     0.0000000000e+00     0.0000000000e+00
    7.750000     1.3012808498e+01     0.0000000000e+00     0.0000000000e+00
    7.800000     1.3506220976e+01     0.0000000000e+00    -0.0000000000e+00
    7.850000     1.4043322807e+01     0.0000000000e+00    -0.0000000000e+00
    7.900000     1.4623879865e+01     0.0000000000e+00    -0.0000000000e+00
    7.950000     1.5249024589e+01     0.0000000000e+00     0.0000000000e+00
    8.000000     1.5921804948e+01     0.0000000000e+00     0.0000000000e+00
    8.050000     1.6645467387e+01     0.0000000000e+00     0.0000000000e+00
    8.100000     1.7421481138e+01     0.0000000000e+00     0.0000000000e+00
    8.150000     1.8249605441e+01     0.0000000000e+00     0.0000000000e+00
    8.200000     1.9129898154e+01     0.0000000000e+00     0.0000000000e+00
    8.250000     2.0064282462e+01     0.0000000000e+00     0.0000000000e+00
    8.300000     2.1055789993e+01     0.0000000000e+00     0.0000000000e+00
    8.350000     2.2106282137e+01     0.0000000000e+00     0.0000000000e+00
    8.400000     2.3215171983e+01     0.0000000000e+00    -0.0000000000e+00
    8.450000     2.4380428744e+01     0.0000000000e+00    -0.0000000000e+00
    8.500000     2.5600427045e+01     0.0000000000e+00    -0.0000000000e+00
    8.550000     2.6874220006e+01     0.0000000000e+00    -0.0000000000e+00
    8.600000     2.8199739558e+01     0.0000000000e+00     0.0000000000e+00
    8.650000     2.9572006219e+01     0.0000000000e+00     0.0000000000e+00
    8.700000     3.0983616331e+01     0.0000000000e+00     0.0000000000e+00
    8.750000     3.2427296645e+01     0.0000000000e+00     0.0000000000e+00
    8.800000     3.3898016606e+01     0.0000000000e+00     0.0000000000e+00
    8.850000     3.5392684802e+01     0.0000000000e+00     0.0000000000e+00
    8.900000     3.6908208538e+01    -0.0000000000e+00     0.0000000000e+00
    8.950000     3.8440483559e+01    -0.0000000000e+00     0.0000000000e+00
    9.000000     3.9985652421e+01    -0.0000000000e+00     0.0000000000e+00
    9.050000     4.1542173271e+01    -0.0000000000e+00     0.0000000000e+00
    9.100000     4.3111130682e+01     0.0000000000e+00     0.0000000000e+00
    9.150000     4.4694079504e+01     0.0000000000e+00     0.0000000000e+00
    9.200000     4.6290384543e+01     0.0000000000e+00     0.0000000000e+00
    9.250000     4.7896435109e+01     0.0000000000e+00     0.0000000000e+00
    9.300000     4.9506854786e+01     0.0000000000e+00    -0.0000000000e+00
    9.350000     5.1115571154e+01     0.0000000000e+00    -0.0000000000e+00
    9.400000     5.2714976469e+01     0.0000000000e+00    -0.0000000000e+00
    9.450000     5.4293904113e+01     0.0000000000e+00     0.0000000000e+00
    9.500000     5.5836771910e+01     0.0000000000e+00     0.0000000000e+00
    9.550000     5.7325048888e+01     0.0000000000e+00     0.0000000000e+00
    9.600000     5.8739583969e+01    -0.0000000000e+00     0.0000000000e+00
    9.650000     6.0061406365e+01    -0.0000000000e+00     0.0000000000e+00
    9.700000     6.1270527884e+01    -0.0000000000e+00     0.0000000000e+00
    9.750000     6.2344849750e+01    -0.0000000000e+00     0.0000000000e+00
    9.800000     6.3261474313e+01    -0.0000000000e+00     0.0000000000e+00
    9.850000     6.4000218989e+01    -0.0000000000e+00     0.0000000000e+00
    9.900000     6.4546719057e+01    -0.0000000000e+00     0.0000000000e+00
    9.950000     6.4892900657e+01     0.0000000000e+00     0.0000000000e+00
   10.000000     6.5035319344e+01     0.0000000000e+00     0.0000000000e+00
   10.050000     6.4973782948e+01     0.0000000000e+00    -0.0000000000e+00
   10.100000     6.4711676572e+01     0.0000000000e+00    -0.0000000000e+00
   10.150000     6.4256775398e+01     0.0000000000e+00    -0.0000000000e+00
   10.200000     6.3620257314e+01     0.0000000000e+00    -0.0000000000e+00
   10.250000     6.2813473354e+01     0.0000000000e+00     0.0000000000e+00
   10.300000     6.1844734421e+01     0.0000000000e+00     0.0000000000e+00
   10.350000     6.0718809943e+01    -0.0000000000e+00     0.0000000000e+00
   10.400000     5.9439426092e+01    -0.0000000000e+00     0.0000000000e+00
   10.450000     5.8012413830e+01    -0.0000000000e+00     0.0000000000e+00
   10.500000     5.6447102056e+01     0.0000000000e+00     0.0000000000e+00
   10.550000     5.4755912055e+01     0.0000000000e+00     0.0000000000e+00
   10.600000     5.2954037567e+01     0.0000000000e+00     0.0000000000e+00
   10.650000     5.1060415149e+01     0.0000000000e+00     0.0000000000e+00
   10.700000     4.9098884396e+01     0.0000000000e+00     0.0000000000e+00
   10.750000     4.7097403277e+01     0.0000000000e+00     0.0000000000e+00
   10.800000     4.5084777933e+01     0.0000000000e+00     0.0000000000e+00
   10.850000     4.3086810441e+01     0.0000000000e+00     0.0000000000e+00
   10.900000     4.1124252875e+01     0.0000000000e+00     0.0000000000e+00
   10.950000     3.9212946460e+01     0.0000000000e+00     0.0000000000e+00
   11.000000     3.7364378919e+01     0.0000000000e+00    -0.0000000000e+00
   11.050000     3.5585080461e+01     0.0000000000e+00    -0.0000000000e+00
   11.100000     3.3875477091e+01    -0.0000000000e+00    -0.0000000000e+00
   11.150000     3.2230304178e+01    -0.0000000000e+00     0.0000000000e+00
   11.200000     3.0641550508e+01    -0.0000000000e+00     0.0000000000e+00
   11.250000     2.9102345605e+01    -0.0000000000e+00     0.0000000000e+00
   11.300000     2.7609151589e+01    -0.0000000000e+00     0.0000000000e+00
   11.350000     2.6161330236e+01    -0.0000000000e+00     0.0000000000e+00
   11.400000     2.4759722315e+01    -0.0000000000e+00     0.0000000000e+00
   11.450000     2.3406426920e+01    -0.0000000000e+00     0.0000000000e+00
   11.500000     2.2105981520e+01    -0.0000000000e+00     0.0000000000e+00
   11.550000     2.0866031054e+01     0.0000000000e+00     0.0000000000e+00
   11.600000     1.9695854435e+01     0.0000000000e+00     0.0000000000e+00
   11.650000     1.8603473349e+01     0.0000000000e+00     0.0000000000e+00
   11.700000     1.7593728622e+01     0.0000000000e+00    -0.0000000000e+00
   11.750000     1.6668692963e+01     0.0000000000e+00    -0.0000000000e+00
   11.800000     1.5829232725e+01     0.0000000000e+00     0.0000000000e+00
   11.850000     1.5075377041e+01     0.0000000000e+00     0.0000000000e+00
   11.900000     1.4404723990e+01     0.0000000000e+00     0.0000000000e+00
   11.950000     1.3810574636e+01     0.0000000000e+00     0.0000000000e+00
   12.000000     1.3281977890e+01     0.0000000000e+00     0.0000000000e+00
   12.050000     1.2805833713e+01     0.0000000000e+00    -0.0000000000e+00
   12.100000     1.2369020380e+01    -0.0000000000e+00     0.0000000000e+00
   12.150000     1.1958719217e+01    -0.0000000000e+00     0.0000000000e+00
   12.200000     1.1561439574e+01     0.0000000000e+00     0.0000000000e+00
   12.250000     1.1162943135e+01     0.0000000000e+00     0.0000000000e+00
   12.300000     1.0750308792e+01     0.0000000000e+00     0.0000000000e+00
   12.350000     1.0314846094e+01     0.0000000000e+00     0.0000000000e+00
   12.400000     9.8533891360e+00     0.0000000000e+00     0.0000000000e+00
   12.450000     9.3670618641e+00     0.0000000000e+00     0.0000000000e+00
   12.500000     8.8591231893e+00     0.0000000000e+00     0.0000000000e+00
   12.550000     8.3341111523e+00     0.0000000000e+00    -0.0000000000e+00
   12.600000     7.7985795443e+00    -0.0000000000e+00    -0.0000000000e+00
   12.650000     7.2615744845e+00    -0.0000000000e+00    -0.0000000000e+00
   12.700000     6.7331756611e+00    -0.0000000000e+00     0.0000000000e+00
   12.750000     6.2217250658e+00    -0.0000000000e+00     0.0000000000e+00
   12.800000     5.7320778426e+00    -0.0000000000e+00     0.0000000000e+00
   12.850000     5.2662907551e+00    -0.0000000000e+00     0.0000000000e+00
   12.900000     4.8256284909e+00    -0.0000000000e+00     0.0000000000e+00
